MTS793|BTW|ENU|1|0|.|/|:|1|0|0|A

Data Header:                                                Time:     108.82715 Sec       10/20/2021 12:06:53 PM
Data Acquisition: Timed
Station Name: ftse.cfg
Test File Name: Untitled test
Time      Ch Disp.  Ch Force
Sec       in        kip
0.20800781 -0.0013181955 0.036402177
0.30810547 -0.0013552647 0.03539332
0.40820313 -0.0013151896 0.049019009
0.50830078 -0.0012556831 0.095547378
0.60839844 0.0006799663 1.8570615
0.70849609 0.0013300335 2.455296
0.80859375 0.001892573 2.9823136
0.90869141 0.0024561035 3.4891007
1.0087891 0.0029661008 3.8999739
1.1088867 0.0034878824 4.3750134
1.2089844 0.0043985881 5.1514516
1.309082  0.0053764065 5.9653172
1.4091797 0.0061243204 6.6078839
1.5092773 0.0066105961 6.9876871
1.609375  0.0070538935 7.3711014
1.7094727 0.0075565758 7.8346643
1.8095703 0.0083971275 8.5016413
1.909668  0.009172596 9.1595888
2.0097656 0.009987887 9.7836533
2.1098633 0.01065433 10.36831
2.2099609 0.011360641 10.923953
2.3100586 0.012106004 11.454757
2.4101563 0.012785837 11.964379
2.5102539 0.01345498 12.455257
2.6103516 0.01408631 12.924559
2.7104492 0.014722574 13.387568
2.8105469 0.015336948 13.83717
2.9106445 0.015963245 14.286822
3.0107422 0.01656702 14.724866
3.1108398 0.017171191 15.162663
3.2109375 0.017764924 15.58354
3.3110352 0.018339843 16.003798
3.4111328 0.019004565 16.417843
3.5112305 0.019647162 16.846361
3.6113281 0.02065648 17.592615
3.7114258 0.021824351 18.349155
3.8115234 0.022386229 18.648474
3.9116211 0.022695806 18.833143
4.0117188 0.023217311 19.208925
4.1118164 0.024176681 19.867054
4.2119141 0.025061095 20.446224
4.3120117 0.025795201 20.879759
4.4121094 0.026314156 21.197214
4.512207  0.026860733 21.507521
4.6123047 0.027397359 21.829561
4.7124023 0.027912902 22.158321
4.8125    0.02862121 22.561319
4.9125977 0.029383693 23.019638
5.0126953 0.030086789 23.435297
5.112793  0.030778673 23.838844
5.2128906 0.031496175 24.218245
5.3129883 0.032133136 24.59276
5.4130859 0.032830555 24.940577
5.5131836 0.03350614 25.296623
5.6132813 0.034136351 25.630331
5.7133789 0.034753386 25.952967
5.8134766 0.035413612 26.261992
5.9135742 0.03603214 26.558304
6.0136719 0.036652517 26.857073
6.1137695 0.037296653 27.169867
6.2138672 0.037991527 27.498848
6.3139648 0.03868198 27.828382
6.4140625 0.039388597 28.14356
6.5141602 0.040110908 28.445057
6.6142578 0.040816072 28.733463
6.7143555 0.041563362 28.998104
6.8144531 0.042227145 29.244921
6.9145508 0.042920534 29.474628
7.0146484 0.043594424 29.678061
7.1147461 0.044268951 29.889494
7.2148438 0.044967692 30.07048
7.3149414 0.045557894 30.238909
7.4150391 0.04621917 30.38785
7.5151367 0.046840724 30.513872
7.6152344 0.047523923 30.649933
7.715332  0.048106208 30.745525
7.8154297 0.048756503 30.821726
7.9155273 0.04944852 30.875126
8.015625  0.050081074 30.918621
8.1157227 0.050715461 30.982735
8.2158203 0.051400051 31.050076
8.315918  0.052093573 31.123665
8.4160156 0.052766651 31.201239
8.5161133 0.053448178 31.274469
8.6162109 0.054136202 31.343817
8.7163086 0.054804515 31.417646
8.8164063 0.055459537 31.478813
8.9165039 0.056215554 31.529047
9.0166016 0.056898933 31.569166
9.1166992 0.057561528 31.595461
9.2167969 0.058250029 31.632858
9.3168945 0.058916856 31.655121
9.4169922 0.059605651 31.667353
9.5170898 0.060271464 31.677181
9.6171875 0.060921658 31.697416
9.7172852 0.061587244 31.730648
9.8173828 0.062265251 31.76478
9.9174805 0.062932491 31.790701
10.017578 0.063639581 31.808764
10.117676 0.064289518 31.833654
10.217773 0.064959556 31.864492
10.317871 0.065623045 31.917683
10.417969 0.066295274 31.963869
10.518066 0.066992082 32.007938
10.618164 0.067602389 32.053108
10.718262 0.068289571 32.090614
10.818359 0.068969086 32.118744
10.918457 0.069612972 32.135807
11.018555 0.070256151 32.149342
11.118652 0.070913389 32.129475
11.21875  0.071608312 32.085373
11.318848 0.07225693 32.050739
11.418945 0.072905235 32.057446
11.519043 0.07357385 32.091221
11.619141 0.074254066 32.133446
11.719238 0.074927062 32.193611
11.819336 0.075569518 32.228146
11.919434 0.076216206 32.261993
12.019531 0.076884009 32.290871
12.119629 0.077550732 32.309399
12.219727 0.078180782 32.334995
12.319824 0.078929156 32.357018
12.419922 0.079577282 32.383465
12.52002  0.0802605 32.407352
12.620117 0.080960594 32.427959
12.720215 0.081660457 32.443958
12.820313 0.082345225 32.455677
12.92041  0.083000004 32.448517
13.020508 0.083681822 32.423134
13.120605 0.084361807 32.405521
13.220703 0.085001461 32.419392
13.320801 0.085688621 32.44659
13.420898 0.086407453 32.472675
13.520996 0.087041318 32.496464
13.621094 0.087746851 32.516705
13.721191 0.088371873 32.526657
13.821289 0.089077473 32.530964
13.921387 0.089730084 32.531487
14.021484 0.090453997 32.525642
14.121582 0.091064952 32.523907
14.22168  0.091757551 32.525997
14.321777 0.092436761 32.538597
14.421875 0.093080014 32.561764
14.521973 0.093755648 32.592514
14.62207  0.094458595 32.61689
14.722168 0.095101133 32.645351
14.822266 0.095747374 32.672985
14.922363 0.096399218 32.702183
15.022461 0.097087912 32.718647
15.122559 0.097740643 32.7467
15.222656 0.098393716 32.767941
15.322754 0.099071831 32.788021
15.422852 0.099728607 32.808353
15.522949 0.10036092 32.829716
15.623047 0.10106206 32.845234
15.723145 0.10169235 32.861645
15.823242 0.10238952 32.880733
15.92334  0.10304882 32.892773
16.023438 0.10370186 32.909554
16.123535 0.10437416 32.91938
16.223633 0.10502557 32.940102
16.32373  0.10574377 32.954758
16.423828 0.10637774 32.972931
16.523926 0.10699029 32.988922
16.624023 0.10766339 33.005363
16.724121 0.10836072 33.019871
16.824219 0.10903405 33.036472
16.924316 0.1097109 33.053429
17.024414 0.11031788 33.071323
17.124512 0.11097239 33.09309
17.224609 0.11167291 33.112022
17.324707 0.1123381 33.142517
17.424805 0.11304696 33.168064
17.524902 0.11366875 33.194748
17.625    0.11437756 33.212128
17.725098 0.11502306 33.238178
17.825195 0.11575826 33.262791
17.925293 0.11642981 33.287907
18.025391 0.11708028 33.311668
18.125488 0.11774445 33.338673
18.225586 0.11844192 33.365986
18.325684 0.11908314 33.387432
18.425781 0.11975479 33.41153
18.525879 0.12043656 33.434811
18.625977 0.12112241 33.460533
18.726074 0.121785  33.484222
18.826172 0.12241974 33.506962
18.92627  0.12309742 33.529995
19.026367 0.12376656 33.556496
19.126465 0.12446529 33.578369
19.226563 0.12511191 33.600624
19.32666  0.12576827 33.629215
19.426758 0.12645213 33.64949
19.526855 0.1271234 33.672653
19.626953 0.12775838 33.692776
19.727051 0.12844935 33.716911
19.827148 0.12909153 33.739414
19.927246 0.12973429 33.774197
20.027344 0.13040461 33.797371
20.127441 0.13108954 33.817459
20.227539 0.13173191 33.840572
20.327637 0.13245855 33.861904
20.427734 0.13306208 33.88607
20.527832 0.13375147 33.911339
20.62793  0.13438828 33.933327
20.728027 0.13511351 33.959404
20.828125 0.13576189 33.987595
20.928223 0.13643964 34.006554
21.02832  0.1371211 34.033859
21.128418 0.13779505 34.056408
21.228516 0.13848971 34.080589
21.328613 0.1391858 34.101696
21.428711 0.13986753 34.124863
21.528809 0.14052989 34.146317
21.628906 0.14116262 34.170456
21.729004 0.14188139 34.193615
21.829102 0.14255466 34.214619
21.929199 0.14321707 34.237209
22.029297 0.14388299 34.261101
22.129395 0.14456482 34.283283
22.229492 0.14518033 34.306229
22.32959  0.14589673 34.327679
22.429688 0.14658782 34.34399
22.529785 0.147228  34.37252
22.629883 0.14788359 34.39315
22.72998  0.14851424 34.417107
22.830078 0.14918664 34.440159
22.930176 0.14984831 34.460724
23.030273 0.15052667 34.483665
23.130371 0.15118816 34.501125
23.230469 0.15185562 34.524551
23.330566 0.15248282 34.547405
23.430664 0.15315579 34.573376
23.530762 0.15380308 34.597931
23.630859 0.15448044 34.612946
23.730957 0.15514176 34.635162
23.831055 0.15581666 34.657322
23.931152 0.1564527 34.683285
24.03125  0.15707882 34.706932
24.131348 0.15780708 34.730301
24.231445 0.15855397 34.753757
24.331543 0.15922545 34.77454
24.431641 0.15989655 34.791576
24.531738 0.16055575 34.816826
24.631836 0.16128853 34.839317
24.731934 0.16196279 34.856533
24.832031 0.16266216 34.88271
24.932129 0.16332351 34.900871
25.032227 0.16398402 34.925327
25.132324 0.16468267 34.942875
25.232422 0.16533707 34.96167
25.33252  0.16601759 34.986561
25.432617 0.16670257 34.999264
25.532715 0.16733731 35.023941
25.632813 0.16803554 35.037369
25.73291  0.1687191 35.061897
25.833008 0.169374  35.088306
25.933105 0.17002162 35.105862
26.033203 0.17072968 35.122486
26.133301 0.17137739 35.141796
26.233398 0.17204437 35.166458
26.333496 0.17263797 35.182896
26.433594 0.17334987 35.201946
26.533691 0.17404616 35.216625
26.633789 0.1747015 35.236565
26.733887 0.17531855 35.257935
26.833984 0.17600165 35.273277
26.934082 0.17669235 35.296696
27.03418  0.17732438 35.317814
27.134277 0.17800421 35.342392
27.234375 0.17860834 35.361057
27.334473 0.17927438 35.379944
27.43457  0.17993379 35.401398
27.534668 0.18058157 35.417408
27.634766 0.18123113 35.435116
27.734863 0.18191618 35.45174
27.834961 0.18258335 35.469933
27.935059 0.18323609 35.491623
28.035156 0.18391083 35.509274
28.135254 0.18457307 35.525517
28.235352 0.18520565 35.545746
28.335449 0.18589063 35.560772
28.435547 0.18654673 35.579769
28.535645 0.18715726 35.595379
28.635742 0.18786465 35.6147
28.73584  0.18852112 35.63179
28.835938 0.18918726 35.648193
28.936035 0.18984637 35.668972
29.036133 0.19053821 35.686497
29.13623  0.19119726 35.703026
29.236328 0.19187386 35.725338
29.336426 0.19250478 35.741776
29.436523 0.19321032 35.762657
29.536621 0.19385128 35.78474
29.636719 0.19454014 35.79871
29.736816 0.19521177 35.816326
29.836914 0.19591093 35.833225
29.937012 0.19659199 35.848156
30.037109 0.19731146 35.867683
30.137207 0.19797108 35.880772
30.237305 0.19866569 35.895775
30.337402 0.19936378 35.91745
30.4375   0.2000367 35.932468
30.537598 0.20065127 35.947403
30.637695 0.20132464 35.966412
30.737793 0.20195159 35.988029
30.837891 0.20263933 35.999027
30.937988 0.20332734 36.014206
31.038086 0.20395604 36.030304
31.138184 0.20471212 36.046215
31.238281 0.2053628 36.058693
31.338379 0.20598765 36.07431
31.438477 0.20667844 36.088974
31.538574 0.20731956 36.103645
31.638672 0.20800899 36.120964
31.73877  0.20869312 36.132687
31.838867 0.20933615 36.143703
31.938965 0.20998798 36.155746
32.039063 0.21064453 36.16441
32.13916  0.21133421 36.173275
32.239258 0.21199654 36.181492
32.339355 0.21268176 36.19101
32.439453 0.21333188 36.195023
32.539551 0.21400143 36.210896
32.639648 0.21467867 36.213444
32.739746 0.21531576 36.223038
32.839844 0.21599327 36.22522
32.939941 0.21664765 36.226475
33.040039 0.21730155 36.230404
33.140137 0.21797666 36.241604
33.240234 0.21864761 36.256714
33.340332 0.21925905 36.273048
33.44043  0.21999882 36.288788
33.540527 0.22066298 36.301216
33.640625 0.22131741 36.321548
33.740723 0.22198562 36.336952
33.84082  0.2226584 36.353359
33.940918 0.22327165 36.364388
34.041016 0.22396398 36.385811
34.141113 0.22457729 36.401684
34.241211 0.22525717 36.417229
34.341309 0.22588581 36.432251
34.441406 0.22657979 36.443752
34.541504 0.22726665 36.459702
34.641602 0.22794324 36.473396
34.741699 0.228606  36.490139
34.841797 0.22923678 36.501125
34.941895 0.22993982 36.518921
35.041992 0.23059013 36.53783
35.14209  0.23127203 36.551983
35.242188 0.23191971 36.56852
35.342285 0.23259409 36.58823
35.442383 0.23333426 36.597164
35.54248  0.23401678 36.617352
35.642578 0.23468354 36.628696
35.742676 0.23538576 36.638988
35.842773 0.23607621 36.655125
35.942871 0.2367083 36.667519
36.042969 0.2374081 36.679886
36.143066 0.23804536 36.694592
36.243164 0.23869018 36.713951
36.343262 0.2393539 36.72567
36.443359 0.24001741 36.734127
36.543457 0.24069113 36.752991
36.643555 0.24134317 36.768417
36.743652 0.24200162 36.780472
36.84375  0.24268375 36.794933
36.943848 0.24339113 36.811024
37.043945 0.24399835 36.819336
37.144043 0.24475008 36.835186
37.244141 0.24540116 36.848351
37.344238 0.24605879 36.861221
37.444336 0.24671242 36.876129
37.544434 0.2473692 36.891663
37.644531 0.24799526 36.908714
37.744629 0.24871005 36.920879
37.844727 0.24934022 36.935425
37.944824 0.25000215 36.951912
38.044922 0.25068077 36.961308
38.14502  0.25137848 36.975689
38.245117 0.25201821 36.983631
38.345215 0.25268507 37.002056
38.445313 0.25332418 37.016541
38.54541  0.25399545 37.02903
38.645508 0.25465611 37.043495
38.745605 0.25529763 37.057125
38.845703 0.25596246 37.069283
38.945801 0.25661811 37.08007
39.045898 0.25729349 37.09124
39.145996 0.25801873 37.105854
39.246094 0.25869748 37.120987
39.346191 0.25933814 37.133591
39.446289 0.25999931 37.145638
39.546387 0.26065859 37.159435
39.646484 0.26131302 37.170376
39.746582 0.26197684 37.181271
39.84668  0.26264518 37.197678
39.946777 0.26327398 37.211792
40.046875 0.26398033 37.22987
40.146973 0.26465875 37.244267
40.24707  0.26537988 37.26004
40.347168 0.26607841 37.272324
40.447266 0.2667833 37.285946
40.547363 0.2674216 37.295986
40.647461 0.2681351 37.309685
40.747559 0.26879618 37.322861
40.847656 0.26948455 37.333637
40.947754 0.27015531 37.344204
41.047852 0.2708315 37.355534
41.147949 0.27149877 37.370876
41.248047 0.27218467 37.384609
41.348145 0.27289736 37.396885
41.448242 0.27357396 37.411526
41.54834  0.27421528 37.421398
41.648438 0.27489617 37.438591
41.748535 0.27554616 37.451218
41.848633 0.27619496 37.463505
41.94873  0.27685913 37.47583
42.048828 0.27754158 37.494221
42.148926 0.27819279 37.501907
42.249023 0.27887157 37.515511
42.349121 0.27956578 37.531796
42.449219 0.28021052 37.538353
42.549316 0.28092837 37.552433
42.649414 0.28159049 37.563114
42.749512 0.28224197 37.576725
42.849609 0.2829096 37.5877
42.949707 0.28354508 37.602776
43.049805 0.28421646 37.615246
43.149902 0.28485602 37.62553
43.25     0.28551024 37.634361
43.350098 0.28616336 37.651642
43.450195 0.28679666 37.663563
43.550293 0.28751045 37.674862
43.650391 0.28816861 37.69117
43.750488 0.28884393 37.696053
43.850586 0.28947255 37.717228
43.950684 0.29014418 37.727783
44.050781 0.29080522 37.737385
44.150879 0.29149809 37.754238
44.250977 0.2921479 37.76635
44.351074 0.29277951 37.776562
44.451172 0.29343918 37.786194
44.55127  0.294083  37.795052
44.651367 0.294781  37.810371
44.751465 0.2954599 37.822659
44.851563 0.2961404 37.835468
44.95166  0.29677683 37.847218
45.051758 0.29743987 37.858131
45.151855 0.29812175 37.872292
45.251953 0.29875615 37.878845
45.352051 0.29939452 37.893566
45.452148 0.30006689 37.903816
45.552246 0.30072469 37.91869
45.652344 0.3013745 37.92979
45.752441 0.30202001 37.940845
45.852539 0.30272555 37.956486
45.952637 0.30339679 37.965679
46.052734 0.30408752 37.97752
46.152832 0.30471781 37.987667
46.25293  0.30532926 38.001179
46.353027 0.30603844 38.011486
46.453125 0.30667263 38.027603
46.553223 0.30733055 38.039299
46.65332  0.30797547 38.049473
46.753418 0.30863953 38.06683
46.853516 0.30929694 38.083611
46.953613 0.31001627 38.101368
47.053711 0.31075373 38.111515
47.153809 0.3114216 38.125629
47.253906 0.31212601 38.137157
47.354004 0.31278211 38.149002
47.454102 0.31347191 38.158318
47.554199 0.31414294 38.168465
47.654297 0.31482834 38.178978
47.754395 0.3155171 38.194073
47.854492 0.31616727 38.205029
47.95459  0.31684858 38.216591
48.054688 0.31754297 38.229782
48.154785 0.31824204 38.242718
48.254883 0.31892282 38.247982
48.35498  0.31959781 38.256828
48.455078 0.32026243 38.270859
48.555176 0.3209208 38.283802
48.655273 0.32158682 38.29237
48.755371 0.32225144 38.307335
48.855469 0.32293293 38.322952
48.955566 0.32356367 38.329376
49.055664 0.32423761 38.337368
49.155762 0.324891  38.352577
49.255859 0.32561564 38.360882
49.355957 0.32630289 38.37149
49.456055 0.32698077 38.382008
49.556152 0.32761738 38.394924
49.65625  0.32827517 38.400665
49.756348 0.32893959 38.411137
49.856445 0.32956383 38.424809
49.956543 0.33020505 38.4324
50.056641 0.33089739 38.449028
50.156738 0.33153605 38.460659
50.256836 0.3321664 38.470623
50.356934 0.33287153 38.485565
50.457031 0.33357009 38.494987
50.557129 0.33425343 38.5061
50.657227 0.3348985 38.515491
50.757324 0.33554655 38.533535
50.857422 0.33621424 38.54216
50.95752  0.33686319 38.553513
51.057617 0.33751532 38.564934
51.157715 0.33820182 38.572296
51.257813 0.33884552 38.586235
51.35791  0.33948556 38.594509
51.458008 0.34016836 38.604527
51.558105 0.34087178 38.614857
51.658203 0.34151289 38.626369
51.758301 0.3421782 38.638855
51.858398 0.34281772 38.650108
51.958496 0.34347543 38.656113
52.058594 0.34411693 38.673241
52.158691 0.3448073 38.682865
52.258789 0.34543285 38.69368
52.358887 0.34610888 38.704239
52.458984 0.34674096 38.716202
52.559082 0.34743246 38.727459
52.65918  0.34812722 38.736881
52.759277 0.34882036 38.749275
52.859375 0.34945041 38.759731
52.959473 0.35013446 38.766651
53.05957  0.35076934 38.780411
53.159668 0.35142663 38.792904
53.259766 0.35209149 38.801762
53.359863 0.35270962 38.814503
53.459961 0.3533915 38.822994
53.560059 0.35403338 38.834141
53.660156 0.35467497 38.842739
53.760254 0.35539714 38.850574
53.860352 0.35605523 38.862469
53.960449 0.35673758 38.872124
54.060547 0.35741577 38.877205
54.160645 0.35805064 38.892921
54.260742 0.3587389 38.902203
54.36084  0.35940373 38.912411
54.460938 0.36003327 38.924843
54.561035 0.36069477 38.931065
54.661133 0.36137664 38.944889
54.76123  0.36205557 38.953804
54.861328 0.36274794 38.966129
54.961426 0.36347046 38.973911
55.061523 0.36411604 38.983044
55.161621 0.36481628 38.995892
55.261719 0.36545011 39.002693
55.361816 0.36610541 39.013756
55.461914 0.36676699 39.020836
55.562012 0.36742121 39.030342
55.662109 0.36809659 39.039871
55.762207 0.36876386 39.050095
55.862305 0.36941862 39.058144
55.962402 0.37007609 39.071201
56.0625   0.37081403 39.08326
56.162598 0.37145439 39.090706
56.262695 0.37214458 39.096695
56.362793 0.37281832 39.107716
56.462891 0.37350541 39.115891
56.562988 0.37416589 39.125656
56.663086 0.37482464 39.137642
56.763184 0.37546143 39.147591
56.863281 0.3761768 39.158676
56.963379 0.37679935 39.166328
57.063477 0.3775014 39.179996
57.163574 0.37815648 39.18824
57.263672 0.37886682 39.200371
57.36377  0.37952125 39.206284
57.463867 0.38016206 39.214096
57.563965 0.3808175 39.22657
57.664063 0.38144064 39.234219
57.76416  0.38214073 39.245213
57.864258 0.38277411 39.255894
57.964355 0.38341925 39.26646
58.064453 0.38412461 39.277233
58.164551 0.38482365 39.292126
58.264648 0.38546604 39.29982
58.364746 0.38617799 39.310337
58.464844 0.38679007 39.319126
58.564941 0.38749379 39.328941
58.665039 0.38815501 39.334316
58.765137 0.38879138 39.345715
58.865234 0.38943487 39.357746
58.965332 0.39012524 39.364082
59.06543  0.39077163 39.375683
59.165527 0.39143261 39.38604
59.265625 0.39206597 39.395451
59.365723 0.39277419 39.410172
59.46582  0.39344791 39.418076
59.565918 0.39415452 39.423012
59.666016 0.39476639 39.433556
59.766113 0.39549407 39.443417
59.866211 0.39613101 39.451492
59.966309 0.39680886 39.458935
60.066406 0.39749503 39.470028
60.166504 0.39815617 39.478569
60.266602 0.39882332 39.488529
60.366699 0.39947063 39.497623
60.466797 0.40017927 39.501831
60.566895 0.40083787 39.507999
60.666992 0.40154669 39.522442
60.76709  0.40220532 39.528046
60.867188 0.40287057 39.53751
60.967285 0.40352261 39.545834
61.067383 0.40417698 39.555996
61.16748  0.40484238 39.561478
61.267578 0.40550563 39.570129
61.367676 0.40617701 39.580784
61.467773 0.40682688 39.589359
61.567871 0.40751231 39.599216
61.667969 0.40818605 39.604839
61.768066 0.4088707 39.610653
61.868164 0.40953419 39.621315
61.968262 0.41018486 39.628532
62.068359 0.41089192 39.636425
62.168457 0.41157317 39.646358
62.268555 0.41219538 39.654663
62.368652 0.41286445 39.659481
62.46875  0.41347545 39.668266
62.568848 0.41416514 39.680237
62.668945 0.41484788 39.687233
62.769043 0.41552323 39.695061
62.869141 0.41619629 39.702183
62.969238 0.41686508 39.71056
63.069336 0.41752741 39.717197
63.169434 0.41816196 39.726093
63.269531 0.41883859 39.732727
63.369629 0.41948825 39.743721
63.469727 0.42016032 39.751392
63.569824 0.42082623 39.758564
